"Time (min)","P","PI","PID"
0.0010000000000000152,20.02082626373161,20.02082626373161,20.089255415992646
0.002000999999999941,20.082822843458487,20.082822843458487,20.354955043393613
0.003001000000000074,20.18496976988349,20.18496976988349,20.792727585215076
0.004001000000000207,20.326431888269,20.326431888269,21.398993806867004
0.005001000000000339,20.506350762487273,20.506350762487273,22.170074696373895
0.006001000000000472,20.723885837184266,20.723885837184266,23.1023678736468
0.007001000000000605,20.978214066153242,20.978214066153242,24.19234599779916
0.008002000000000573,21.26883761071948,21.26883761071948,25.437875474511607
0.009002999999999838,21.594728948373398,21.594728948373398,26.834552635885615
0.010003999999999102,21.955113111076585,21.955113111076585,28.379056190327848
0.011004999999998367,22.349231292886873,22.349231292886873,30.06813411237177
0.012005999999997631,22.77634051371599,22.77634051371599,31.898602201639456
0.013006999999996896,23.235713290082014,23.235713290082014,33.86734267177942
0.01400799999999616,23.726637312710295,23.726637312710295,35.971302768757646
0.015008999999995425,24.2484151308412,24.2484151308412,38.20749341789019
0.016009999999995358,24.80036384310496,24.80036384310496,40.572987899020525
0.01701066666666701,25.381545229613078,25.381586423425272,43.060762539246895
0.01801066666666801,25.990201617797943,25.990827191383005,45.6266928646617
0.01901066666666901,26.625835845546632,26.627725432303638,48.25870215059098
0.02001066666667001,27.287847672900025,27.29166609116345,50.955297850965316
0.02101066666667101,27.97564937322359,27.982046934829995,53.71501855597336
0.02201066666667201,28.68866547312497,28.698278285566477,56.53643334489187
0.02301066666667301,29.426332497776812,29.439782760075,59.41814115236568
0.02401066666667401,30.188098721532185,30.205995013962465,62.35877014785671
0.02501066666667501,30.973423923722343,30.996361491516815,65.35697712798853
0.02601066666667601,31.781779149529562,31.81034018068368,68.41144692152025
0.02701066666667701,32.61264647582913,32.647400373134246,71.52089180668425
0.02801066666667801,33.465518781897906,33.507022429320024,74.68405094063314
0.02901066666667901,34.33989952488733,34.38869754840975,77.89968980074505
0.03001066666668001,35.235302519962914,35.2919275430074,81.16659963753699
0.03101066666668101,36.15125172501242,36.21622461855111,84.48359693894857
0.03201066666668201,37.087281029828034,37.16111115729835,87.84952290575946
0.03301066666668301,38.04293404967018,38.12611950679818,91.26324293790708
0.03401133333335466,39.0177179644411,39.110903196183436,94.70458251795178
0.03501133333335566,40.00772837193096,40.11199883269342,98.1018420778007
0.03601133333335666,41.01308614483549,41.12954334154885,101.45337663737025
0.03701133333335766,42.033436442612484,42.1631576603084,104.76011155750031
0.03801133333335866,43.068431834635234,43.21247064113824,108.02295299372432
0.03901133333335966,44.117732146169885,44.277118886299405,111.24278829535399
0.04001133333336066,45.18100430755236,45.35674658705407,114.42048639627178
0.04101133333336166,46.257922206500574,46.45100536591948,117.55689819760222
0.04201133333336266,47.34816654349613,47.559554122199856,120.65285694242951
0.04301133333336366,48.45142469016978,48.682058880729265,123.70917858272978
0.04401133333336466,49.56739055063175,49.81819264375597,126.72666213867636
0.04501133333336566,50.69576442568278,50.96763524590765,129.70609005047993
0.04601133333336666,51.83625287984736,52.13007321216741,132.64822852291607
0.04701133333336766,52.98856861116954,53.30519961880451,135.5538278626934
0.04801133333336866,54.152430323716054,54.49271395719197,138.4236228088096
0.04901133333336966,55.32756260272749,55.69232200045743,141.25833285604517
0.050012000000041315,56.51448987998941,56.90454691544608,144.06051463603433
0.051012000000042315,57.709217411288286,58.12562518050101,146.80016640579947
0.052012000000043315,58.910282401791044,59.35435514819532,149.45486118525358
0.053012000000044315,60.11752200133443,60.59054479582782,152.02639249657042
0.054012000000045315,61.33077677511993,61.834006124163466,154.51651656229527
0.055012000000046316,62.54989063270699,63.08455507378831,156.92695308050284
0.056012000000047316,63.77471075848133,64.34201144320113,159.25938598384934
0.057012000000048316,65.00508754356967,65.60619880860908,161.51546418285105
0.058012000000049316,66.24087451916822,66.87694444538882,163.69680229371858
0.059012000000050316,67.48192829125699,68.15407925118102,165.80498135105915
0.060012000000051316,68.72810847667157,69.43743767058164,167.8415495057762
0.061012000000052316,69.9792776405024,70.7268576213992,169.8080227084577
0.062012000000053316,71.23530123479566,72.02218042244431,171.70588537857068
0.06301200000005432,72.49604753852715,73.32325072281954,173.5365910597425
0.06401200000005532,73.76138759882548,74.62991643268029,175.30156306142732
0.06501200000005632,75.03119517341452,75.94202865543176,177.00219508724004
0.06601200000005732,76.30534667425368,77.25944162133774,178.63985185022744
0.06701266666672898,77.58428800325147,78.58263417837321,180.21632953576798
0.06801266666672998,78.86273933307812,79.9065463946348,181.72395786491592
0.06901266666673098,80.14050309500092,81.23106998757395,183.16323378925983
0.07001266666673198,81.41756771021338,82.55616414213243,184.5356147608193
0.07101266666673298,82.69392186638599,83.88178891953558,185.8425279069524
0.07201266666673398,83.96955451210226,85.20790523905409,187.08537066057633
0.07301266666673498,85.2444548514099,86.53447486014515,188.26551137729362
0.07401266666673598,86.51861233848773,87.86146036496388,189.3842899396901
0.07501266666673698,87.79201667242084,89.18882514123878,190.4430183490777
0.07601266666673798,89.06465779208592,90.51653336550292,191.44298130493786
0.07701266666673898,90.3365258711421,91.84454998667312,192.3854367723262
0.07801266666673998,91.60761131312584,93.1728407099724,193.2716165374832
0.07901266666674098,92.8779047466489,94.50137198118318,194.10272675189992
0.08001266666674198,94.14739702069488,95.83011097123158,194.87994846507496
0.08101266666674298,95.41607920001428,97.15902556108814,195.60443814620538
0.08201266666674398,96.6839425606144,98.48808432698677,196.2773281950294
0.08301266666674498,97.95097858534444,99.817256525946,196.8997274420586
0.08401333333341662,99.21688566209097,101.14632157234699,197.4758313028495
0.08501333333341762,100.4764823933002,102.47017793448383,198.01434879384237
0.08601333333341862,101.73045666716945,103.78954227124056,198.51707782447173
0.08701333333341962,102.97890478212193,105.10448492465335,198.98478670883813
0.08801333333342062,104.22192105591266,106.41507479795946,199.41822776994158
0.08901333333342162,105.45959786676734,107.72137938547404,199.81813767202033
0.09001333333342262,106.69202569366934,109.02346480184622,200.18523774598384
0.09101333333342362,107.91929315580597,110.32139581070807,200.52023430808325
0.09201333333342462,109.14148705119965,111.61523585272599,200.8238189719606
0.09301333333342562,110.35869239453007,112.90504707307245,201.09666895420906
0.09401333333342662,111.57099245417717,114.19089034832386,201.3394473735891
0.09501333333342762,112.77846878848874,115.47282531280148,201.55280354402146
0.09601333333342862,113.98120128129766,116.75091038436338,201.73737326149435
0.09701333333342962,115.17926817669974,118.02520278966232,201.8937790850063
0.09801333333343062,116.37274611310926,119.29575858887677,202.0226306116738
0.09901333333343162,117.56171015660688,120.56263269992957,202.12452474611717
0.10001400000010327,118.74702161800268,121.82671946507101,202.20008896791242
0.10101400000010427,119.92475101245479,123.08402103794023,202.25723107663424
0.10201400000010527,121.0935335045014,124.33325729592302,202.30340574540602
0.10301400000010627,122.2535395019351,125.57457779238939,202.33885066642569
0.10401400000010727,123.4049358867742,126.80812899084836,202.36379858258033
0.10501400000010827,124.54788608851659,128.03405432914096,202.37847739030795
0.10601400000010927,125.682550155872,129.25249428229878,202.38311024032248
0.10701400000011027,126.8090848270032,130.46358642409857,202.377915636245
0.10801400000011127,127.92764359830853,131.66746548733295,202.36310753118923
0.10901400000011227,129.03837679177371,132.86426342283525,202.33889542233177
0.11001400000011327,130.1414316209251,134.05410945727172,202.3054844435247
0.11101400000011427,131.2369522554126,135.23713014973524,202.26307545598027
0.11201400000011527,132.32507988424743,136.41344944716323,202.21186513707022
0.11301400000011627,133.40595277773116,137.58318873860594,202.15204606728224
0.11401400000011727,134.47970634809258,138.74646690836144,202.08380681536755
0.11501400000011827,135.5464732088681,139.90340038801,202.00733202171978
0.11601400000011927,136.60638323304565,141.05410320736928,201.92280248001933
0.11701466666679092,137.66000264108513,142.19918544738402,201.83087494591166
0.11801466666679192,138.7029404116532,143.3340979798793,201.73833344082072
0.11901466666679292,139.7351899541851,144.4588744475368,201.64702535467632
0.12001466666679392,140.75696240359562,145.57371204834567,201.55692574485496
0.12101466666679492,141.76846451812605,146.67880389570894,201.46801018638138
0.12201466666679592,142.76989877028717,147.7743391033136,201.38025476117545
0.12301466666679692,143.7614634359079,148.86050286823655,201.2936360475152
0.12401466666679792,144.7433526813399,149.93747655232247,201.2081311097255
0.12501466666679892,145.7157566488467,151.00543776187138,201.12371748807692
0.12601466666679992,146.67886154021545,152.06456042567066,201.04037318889533
0.12701466666680092,147.6328496986367,153.11501487140612,200.95807667487873
0.12801466666680192,148.57789968887954,154.15696790048185,200.8768068556113
0.12901466666680292,149.5141863757998,155.1905828612874,200.7965430782806
0.13001466666680392,150.44188100121926,156.216019720945,200.71726511858122
0.13101466666680492,151.36115125920497,157.23343513556046,200.63895317181337
0.13201466666680592,152.27216136978717,158.24298251901897,200.56158784416084
0.13301466666680692,153.17507215114037,159.2448121103483,200.48515014415526
0.13401533333347856,154.0697634873643,160.23882610490614,200.41028619163237
0.13501533333347956,154.95254357516686,161.22108776336816,200.33925388141012
0.13601533333348056,155.82405189325266,162.1922884313561,200.27207560582252
0.13701533333348156,156.68451561312693,163.15264862312569,200.2086688965015
0.13801533333348256,157.53415719245507,164.10238427971404,200.1489530012481
0.13901533333348357,158.3731944730125,165.0417068639669,200.09284884836958
0.14001533333348457,159.20184077660207,165.97082345358976,200.04027901175232
0.14101533333348557,160.02030499897904,166.8899368322693,199.99116767666246
0.14201533333348657,160.82879170181994,167.7992455788978,199.94544060625734
0.14301533333348757,161.62750120278673,168.69894415494758,199.9030251087926
0.14401533333348857,162.41662966371172,169.5892229900214,199.8638500055103
0.14501533333348957,163.1963691769578,170.4702685656355,199.82784559919557
0.14601533333349057,163.96690784997864,171.34226349725415,199.79494364338495
0.14701533333349157,164.72842988812124,172.20538661462322,199.76507731221565
0.14801533333349257,165.48111567571203,173.05981304043186,199.73818117090386
0.14901533333349357,166.22514185545393,173.90571426734,199.7141911468303
0.1500160000001652,166.96116859443478,174.74381343851388,199.69303130825054
0.1510160000001662,167.68677499837682,175.57142869807873,199.6745395950142
0.1520160000001672,168.40115228704985,176.3877049541102,199.65852337775664
0.1530160000001682,169.10452996754887,177.192871988339,199.64492912240294
0.1540160000001692,169.79713278137132,177.98715481319965,199.63370440947125
0.1550160000001702,170.47918080344562,178.77077377093346,199.62479791091133
0.1560160000001712,171.15088953910856,179.54394463063653,199.61815936741692
0.1570160000001722,171.8124700190593,180.30687868328977,199.61373956621802
0.1580160000001732,172.46412889234622,181.05978283481429,199.611490319327
0.1590160000001742,173.10606851741795,181.80285969719193,199.61136444224167
0.1600160000001752,173.73848705128538,182.53630767769332,199.61331573308928
0.1610160000001762,174.3615785368271,183.26032106624973,199.61729895220535
0.1620160000001772,174.97553298828385,183.97509012101307,199.62326980213376
0.1630160000001782,175.58053647497394,184.6808011521344,199.6311849080465
0.1640160000001792,176.17677120326994,185.3776366038013,199.64100179856547
0.1650160000001802,176.76441559687356,186.06577513457415,199.652678886988
0.1660160000001812,177.34364437541765,186.74539169604827,199.66617545290006
0.16701666666685286,177.91485353164293,187.41693135007617,199.68139048778968
0.16801666666685386,178.4756434149908,188.07764880173323,199.69741603879183
0.16901666666685486,179.0260816908277,188.72762246651345,199.7139980551698
0.17001666666685586,179.56638217685366,189.36707262849592,199.73112408382497
0.17101666666685686,180.09675424866978,189.99621499696357,199.74878193133796
0.17201666666685786,180.6174029320907,190.61526080147217,199.76695965857078
0.17301666666685886,181.12852899353575,191.22441688493973,199.78564557538397
0.17401666666685986,181.6303290285445,191.82388579480548,199.80482823545788
0.17501666666686086,182.1229955484512,192.41386587229098,199.82449643122902
0.17601666666686186,182.60671706525756,192.99455133980635,199.84463918892317
0.17701666666686286,183.0816781747424,193.56613238654555,199.86524576369993
0.17801666666686386,183.54805963784682,194.12879525229448,199.88630563489224
0.17901666666686486,184.0060384603637,194.68272230950393,199.90780850134576
0.18001666666686586,184.45578797097227,195.2280921436526,199.92974427685922
0.18101666666686686,184.89747789765417,195.7650796319457,199.95210308571396
0.18201666666686786,185.33127444251795,196.29385602037038,199.9748752583005
0.18301666666686886,185.75734035506989,196.81458899915657,199.99805132683383
0.1840173333335405,186.17566818674808,197.32726248479605,200.0214328589098
0.1850173333335415,186.58451615339314,197.82978307139317,200.04435971613452
0.1860173333335425,186.98426374559804,198.32258846842066,200.06681324277457
0.1870173333335435,187.3751006842325,198.8058798422204,200.08880327211585
0.1880173333335445,187.75721274692464,199.27985417937447,200.11033943309766
0.1890173333335455,188.1307818500082,199.74470437356274,200.1314311545631
0.1900173333335465,188.49598612876704,200.20061931061943,200.1520876694133
0.1910173333335475,188.85300001600817,200.64778395181898,200.17231801868252
0.1920173333335485,189.20199431900537,201.0863794154334,200.19213105552316
0.1930173333335495,189.54313629484446,201.51658305659402,200.21153544911277
0.1940173333335505,189.8765897241979,201.93856854549384,200.23053968847438
0.1950173333335515,190.20251498357425,202.35250594396288,200.24915208622056
0.1960173333335525,190.52106911605705,202.75856178045572,200.2673807822225
0.1970173333335535,190.83240590058034,203.1568991234772,200.28523374719737
0.1980173333335545,191.1366759197633,203.54767765348493,200.30271878622366
0.1990173333335555,191.4340266263311,203.93105373329556,200.31984354218235
0.20001800000022715,191.72479368834624,204.30742858327636,200.33662651341913
0.20101800000022815,192.0080329286823,204.67557959403032,200.35288173471076
0.20201800000022915,192.2834471387589,205.03511869595235,200.36847304959727
0.20301800000023015,192.5512008704937,205.38622581607555,200.3834145808238
0.20401800000023115,192.8114552542704,205.72907714136187,200.3977201573217
0.20501800000023215,193.06436807004886,206.0638451964302,200.41140332031455
0.20601800000023315,193.3100938169898,206.39069891966307,200.42447732929728
0.20701800000023415,193.54878378163662,206.70980373773386,200.43695516789074
0.20801800000023515,193.7805861046804,207.02132163858602,200.44884954957655
0.20901800000023615,194.00564584633517,207.32541124289688,200.46017292330848
0.21001800000023715,194.22410505035745,207.62222787405182,200.4709374790131
0.21101800000023815,194.436102806733,207.91192362666857,200.4811551529705
0.21201800000023915,194.64177531306183,208.19464743369568,200.49083763308778
0.21301800000024015,194.8412559346674,208.47054513211694,200.4999963640586
0.21401800000024115,195.03467526345833,208.73975952729043,200.50864255241916
0.21501800000024215,195.22216117556295,209.00243045595005,200.5167871714991
0.21601800000024315,195.4038388877703,209.2586948478995,200.52444096626505
0.2170186666669148,195.57989185039625,209.50877672887933,200.5316206371409
0.2180186666669158,195.7495677966444,209.7516024773015,200.5383450804082
0.2190186666669168,195.91293536725934,209.98723959020947,200.5446341106585
0.2200186666669178,196.07012843908876,210.21583959778732,200.55049707184315
0.2210186666669188,196.22127810407264,210.43755087909165,200.55594311343722
0.2220186666669198,196.36651272711936,210.65251872753979,200.560981194485
0.2230186666669208,196.50595800277958,210.86088541503284,200.56562008755455
0.2240186666669218,196.63973701074252,211.06279025475044,200.56986838261457
0.2250186666669228,196.7679702701796,211.25836966263844,200.57373449082976
0.2260186666669238,196.89077579295724,211.4477572176183,200.5772266482764
0.2270186666669248,197.00826913574477,211.63108372054796,200.58035291958095
0.2280186666669258,197.12056345103966,211.80847725195366,200.58312120148344
0.2290186666669268,197.22776953713003,211.9800632285655,200.5855392263267
0.2300186666669278,197.3299958870238,212.145964458675,200.58761456547364
0.2310186666669288,197.42734873635564,212.30630119634546,200.5893546326513
0.2320186666669298,197.5199321103029,212.4611911944928,200.59076668722886
0.2330186666669308,197.6078478695214,212.61074975686645,200.59185783742544
0.23401933333360245,197.6911343969671,212.75499925915986,200.59266826603917
0.23501933333360345,197.7694318316628,212.89330244577357,200.59330223286605
0.23601933333360445,197.84287900246972,213.02584327507842,200.59377097794632
0.23701933333360545,197.9115799254764,213.15274438287162,200.59407808676582
0.23801933333360645,197.97563645196757,213.27412585353997,200.59422707014787
0.23901933333360745,198.0351483134138,213.39010527308392,200.59422136580437
0.24001933333360845,198.09021316552742,213.5007977810404,200.59406433985578
0.24101933333360945,198.140926631402,213.6063161213252,200.59375928831906
0.24201933333361045,198.18738234375712,213.7067706920215,200.59330943856386
0.24301933333361145,198.22967198630326,213.80226959413045,200.59271795074113
0.24401933333361245,198.26788533424863,213.89291867931115,200.59198791917788
0.24501933333361345,198.302110293962,213.97882159662785,200.59112237374654
0.24601933333361445,198.33243294181327,214.06007983832558,200.5901242812045
0.24701933333361545,198.35893756220722,214.13679278465304,200.58899654650625
0.24801933333361645,198.381706684825,214.20905774775702,200.5877420140865
0.24901933333361745,198.4008211210937,214.27697001466154,200.58636346911874
0.25002000000028857,198.41636914879467,214.34066383988932,200.5848626207733
0.2510210000002618,198.42832374333244,214.39997507927995,200.58330166712648
0.252022000000235,198.4366707346634,214.45476681198258,200.58173684348696
0.2530230000002082,198.44148852808667,214.50513633930566,200.58016826671698
0.25402400000018144,198.4428538945658,214.55117893522524,200.57859605121067
0.25502500000015466,198.44084200472926,214.5929878885597,200.57702030894643
0.2560260000001279,198.43552646216645,214.63065454426894,200.57544114953677
0.2570270000001011,198.42697933602523,214.66426834389281,200.57385868027842
0.2580280000000743,198.41527119293542,214.69391686514763,200.57227300619908
0.2590290000000475,198.40047112826775,214.71968586070312,200.57068423010713
0.26003000000002074,198.38264679674188,214.74165929614708,200.5690924526334
0.26103099999999396,198.36186444239678,214.75991938716587,200.56749777228165
0.2620319999999672,198.33818892794014,214.77454663594636,200.56590028546984
0.2630329999999404,198.3116837634869,214.78561986682675,200.5643000865736
0.2640339999999136,198.28241113469514,214.79321626119736,200.56269726797075
