"Time (min)","Measured temperature"
0.0010000000000000152,20.02082626373161
0.002000999999999941,20.082822843458487
0.003001000000000074,20.18496976988349
0.004001000000000207,20.326431888269
0.005001000000000339,20.506350762487273
0.006001000000000472,20.723885837184266
0.007001000000000605,20.978214066153242
0.008002000000000573,21.26883761071948
0.009002999999999838,21.594728948373398
0.010003999999999102,21.955113111076585
0.011004999999998367,22.349231292886873
0.012005999999997631,22.77634051371599
0.013006999999996896,23.235713290082014
0.01400799999999616,23.726637312710295
0.015008999999995425,24.2484151308412
0.016009999999995358,24.80036384310496
0.01701066666666701,25.381545229613078
0.01801066666666801,25.990201617797943
0.01901066666666901,26.625835845546632
0.02001066666667001,27.287847672900025
0.02101066666667101,27.97564937322359
0.02201066666667201,28.68866547312497
0.02301066666667301,29.426332497776812
0.02401066666667401,30.188098721532185
0.02501066666667501,30.973423923722343
0.02601066666667601,31.781779149529562
0.02701066666667701,32.61264647582913
0.02801066666667801,33.465518781897906
0.02901066666667901,34.33989952488733
0.03001066666668001,35.235302519962914
0.03101066666668101,36.15125172501242
0.03201066666668201,37.087281029828034
0.03301066666668301,38.04293404967018
0.03401133333335466,39.0177179644411
0.03501133333335566,40.00772837193096
0.03601133333335666,41.01308614483549
0.03701133333335766,42.033436442612484
0.03801133333335866,43.068431834635234
0.03901133333335966,44.117732146169885
0.04001133333336066,45.18100430755236
0.04101133333336166,46.257922206500574
0.04201133333336266,47.34816654349613
0.04301133333336366,48.45142469016978
0.04401133333336466,49.56739055063175
0.04501133333336566,50.69576442568278
0.04601133333336666,51.83625287984736
0.04701133333336766,52.98856861116954
0.04801133333336866,54.152430323716054
0.04901133333336966,55.32756260272749
0.050012000000041315,56.51448987998941
0.051012000000042315,57.709217411288286
0.052012000000043315,58.910282401791044
0.053012000000044315,60.11752200133443
0.054012000000045315,61.33077677511993
0.055012000000046316,62.54989063270699
0.056012000000047316,63.77471075848133
0.057012000000048316,65.00508754356967
0.058012000000049316,66.24087451916822
0.059012000000050316,67.48192829125699
0.060012000000051316,68.72810847667157
0.061012000000052316,69.9792776405024
0.062012000000053316,71.23530123479566
0.06301200000005432,72.49604753852715
0.06401200000005532,73.76138759882548
0.06501200000005632,75.03119517341452
0.06601200000005732,76.30534667425368
0.06701266666672898,77.58428800325147
0.06801266666672998,78.86273933307812
0.06901266666673098,80.14050309500092
0.07001266666673198,81.41756771021338
0.07101266666673298,82.69392186638599
0.07201266666673398,83.96955451210226
0.07301266666673498,85.2444548514099
0.07401266666673598,86.51861233848773
0.07501266666673698,87.79201667242084
0.07601266666673798,89.06465779208592
0.07701266666673898,90.3365258711421
0.07801266666673998,91.60761131312584
0.07901266666674098,92.8779047466489
0.08001266666674198,94.14739702069488
0.08101266666674298,95.41607920001428
0.08201266666674398,96.6839425606144
0.08301266666674498,97.95097858534444
0.08401333333341662,99.21688566209097
0.08501333333341762,100.4764823933002
0.08601333333341862,101.73045666716945
0.08701333333341962,102.97890478212193
0.08801333333342062,104.22192105591266
0.08901333333342162,105.45959786676734
0.09001333333342262,106.69202569366934
0.09101333333342362,107.91929315580597
0.09201333333342462,109.14148705119965
0.09301333333342562,110.35869239453007
0.09401333333342662,111.57099245417717
0.09501333333342762,112.77846878848874
0.09601333333342862,113.98120128129766
0.09701333333342962,115.17926817669974
0.09801333333343062,116.37274611310926
0.09901333333343162,117.56171015660688
0.10001400000010327,118.74702161800268
0.10101400000010427,119.92475101245479
0.10201400000010527,121.0935335045014
0.10301400000010627,122.2535395019351
0.10401400000010727,123.4049358867742
0.10501400000010827,124.54788608851659
0.10601400000010927,125.682550155872
0.10701400000011027,126.8090848270032
0.10801400000011127,127.92764359830853
0.10901400000011227,129.03837679177371
0.11001400000011327,130.1414316209251
0.11101400000011427,131.2369522554126
0.11201400000011527,132.32507988424743
0.11301400000011627,133.40595277773116
0.11401400000011727,134.47970634809258
0.11501400000011827,135.5464732088681
0.11601400000011927,136.60638323304565
0.11701466666679092,137.66000264108513
0.11801466666679192,138.7029404116532
0.11901466666679292,139.7351899541851
0.12001466666679392,140.75696240359562
0.12101466666679492,141.76846451812605
0.12201466666679592,142.76989877028717
0.12301466666679692,143.7614634359079
0.12401466666679792,144.7433526813399
0.12501466666679892,145.7157566488467
0.12601466666679992,146.67886154021545
0.12701466666680092,147.6328496986367
0.12801466666680192,148.57789968887954
0.12901466666680292,149.5141863757998
0.13001466666680392,150.44188100121926
0.13101466666680492,151.36115125920497
0.13201466666680592,152.27216136978717
0.13301466666680692,153.17507215114037
0.13401533333347856,154.0697634873643
0.13501533333347956,154.95254357516686
0.13601533333348056,155.82405189325266
0.13701533333348156,156.68451561312693
0.13801533333348256,157.53415719245507
0.13901533333348357,158.3731944730125
0.14001533333348457,159.20184077660207
0.14101533333348557,160.02030499897904
0.14201533333348657,160.82879170181994
0.14301533333348757,161.62750120278673
0.14401533333348857,162.41662966371172
0.14501533333348957,163.1963691769578
0.14601533333349057,163.96690784997864
0.14701533333349157,164.72842988812124
0.14801533333349257,165.48111567571203
0.14901533333349357,166.22514185545393
0.1500160000001652,166.96116859443478
0.1510160000001662,167.68677499837682
0.1520160000001672,168.40115228704985
0.1530160000001682,169.10452996754887
0.1540160000001692,169.79713278137132
0.1550160000001702,170.47918080344562
0.1560160000001712,171.15088953910856
0.1570160000001722,171.8124700190593
0.1580160000001732,172.46412889234622
0.1590160000001742,173.10606851741795
0.1600160000001752,173.73848705128538
0.1610160000001762,174.3615785368271
0.1620160000001772,174.97553298828385
0.1630160000001782,175.58053647497394
0.1640160000001792,176.17677120326994
0.1650160000001802,176.76441559687356
0.1660160000001812,177.34364437541765
0.16701666666685286,177.91485353164293
0.16801666666685386,178.4756434149908
0.16901666666685486,179.0260816908277
0.17001666666685586,179.56638217685366
0.17101666666685686,180.09675424866978
0.17201666666685786,180.6174029320907
0.17301666666685886,181.12852899353575
0.17401666666685986,181.6303290285445
0.17501666666686086,182.1229955484512
0.17601666666686186,182.60671706525756
0.17701666666686286,183.0816781747424
0.17801666666686386,183.54805963784682
0.17901666666686486,184.0060384603637
0.18001666666686586,184.45578797097227
0.18101666666686686,184.89747789765417
0.18201666666686786,185.33127444251795
0.18301666666686886,185.75734035506989
0.1840173333335405,186.17566818674808
0.1850173333335415,186.58451615339314
0.1860173333335425,186.98426374559804
0.1870173333335435,187.3751006842325
0.1880173333335445,187.75721274692464
0.1890173333335455,188.1307818500082
0.1900173333335465,188.49598612876704
0.1910173333335475,188.85300001600817
0.1920173333335485,189.20199431900537
0.1930173333335495,189.54313629484446
0.1940173333335505,189.8765897241979
0.1950173333335515,190.20251498357425
0.1960173333335525,190.52106911605705
0.1970173333335535,190.83240590058034
0.1980173333335545,191.1366759197633
0.1990173333335555,191.4340266263311
0.20001800000022715,191.72479368834624
0.20101800000022815,192.0080329286823
0.20201800000022915,192.2834471387589
0.20301800000023015,192.5512008704937
0.20401800000023115,192.8114552542704
0.20501800000023215,193.06436807004886
0.20601800000023315,193.3100938169898
0.20701800000023415,193.54878378163662
0.20801800000023515,193.7805861046804
0.20901800000023615,194.00564584633517
0.21001800000023715,194.22410505035745
0.21101800000023815,194.436102806733
0.21201800000023915,194.64177531306183
0.21301800000024015,194.8412559346674
0.21401800000024115,195.03467526345833
0.21501800000024215,195.22216117556295
0.21601800000024315,195.4038388877703
0.2170186666669148,195.57989185039625
0.2180186666669158,195.7495677966444
0.2190186666669168,195.91293536725934
0.2200186666669178,196.07012843908876
0.2210186666669188,196.22127810407264
0.2220186666669198,196.36651272711936
0.2230186666669208,196.50595800277958
0.2240186666669218,196.63973701074252
0.2250186666669228,196.7679702701796
0.2260186666669238,196.89077579295724
0.2270186666669248,197.00826913574477
0.2280186666669258,197.12056345103966
0.2290186666669268,197.22776953713003
0.2300186666669278,197.3299958870238
0.2310186666669288,197.42734873635564
0.2320186666669298,197.5199321103029
0.2330186666669308,197.6078478695214
0.23401933333360245,197.6911343969671
0.23501933333360345,197.7694318316628
0.23601933333360445,197.84287900246972
0.23701933333360545,197.9115799254764
0.23801933333360645,197.97563645196757
0.23901933333360745,198.0351483134138
0.24001933333360845,198.09021316552742
0.24101933333360945,198.140926631402
0.24201933333361045,198.18738234375712
0.24301933333361145,198.22967198630326
0.24401933333361245,198.26788533424863
0.24501933333361345,198.302110293962
0.24601933333361445,198.33243294181327
0.24701933333361545,198.35893756220722
0.24801933333361645,198.381706684825
0.24901933333361745,198.4008211210937
0.25002000000028857,198.41636914879467
0.2510210000002618,198.42832374333244
0.252022000000235,198.4366707346634
0.2530230000002082,198.44148852808667
0.25402400000018144,198.4428538945658
0.25502500000015466,198.44084200472926
0.2560260000001279,198.43552646216645
0.2570270000001011,198.42697933602523
0.2580280000000743,198.41527119293542
0.2590290000000475,198.40047112826775
0.26003000000002074,198.38264679674188
0.26103099999999396,198.36186444239678
0.2620319999999672,198.33818892794014
0.2630329999999404,198.3116837634869
0.2640339999999136,198.28241113469514
0.26503499999988683,198.25043193032397
0.26603599999986005,198.21580576921434
0.26703666666650394,198.17860739284097
0.26803766666647716,198.13890698463118
0.2690386666664504,198.09678178899617
0.2700396666664236,198.0522854981676
0.2710406666663968,198.00547068422745
0.27204166666637003,197.9563888224116
0.27304266666634325,197.905090313931
0.27404366666631647,197.85162450831493
0.2750446666662897,197.79603972529293
0.2760456666662629,197.73838327621976
0.2770466666662361,197.67870148505128
0.27804766666620934,197.6170397088917
0.27904866666618255,197.55344235810628
0.28004966666615577,197.48795291602042
0.281050666666129,197.42061395820454
0.2820516666661022,197.35146717136254
0.2830526666660754,197.2805533718243
0.2840533333327193,197.20799300774183
0.28505433333269253,197.1339267289721
0.28605533333266575,197.058420709999
0.28705633333263897,196.98150788197503
0.2880573333326122,196.90322048804083
0.2890583333325854,196.8235900976395
0.2900593333325586,196.74264762053733
0.29106033333253184,196.6604233205449
0.29206133333250506,196.5769468289607
0.2930623333324783,196.49224715772849
0.2940633333324515,196.4063527123262
0.2950643333324247,196.3192913043836
0.29606533333239793,196.23109016403814
0.29706633333237115,196.14177595203375
0.29806733333234436,196.05137477157064
0.2990683333323176,195.95991217990252
0.30006899999896147,195.86744493014626
0.3010699999989347,195.7741172187027
0.3020709999989079,195.68011823554048
0.3030719999988811,195.58546455829276
0.30407299999885434,195.4901724171328
0.30507399999882756,195.39425770200322
0.3060749999988008,195.29773596969713
0.307075999998774,195.20062245079154
0.3080769999987472,195.1029320564353
0.30907799999872043,195.00467938499435
0.31007899999869365,194.90587872856372
0.31107999999866687,194.80654407933957
0.3120809999986401,194.70668913586093
0.3130819999986133,194.6063273091207
0.3140829999985865,194.50547172854832
0.31508399999855974,194.404135247872
0.31608499999853296,194.30233045085444
0.31708566666517685,194.2001370069674
0.31808666666515006,194.09777863390286
0.3190876666651233,193.9953577168564
0.3200886666650965,193.89287774973457
0.3210896666650697,193.7903421515719
0.32209066666504294,193.68775426808813
0.32309166666501615,193.5851173732168
0.32409266666498937,193.4824346705998
0.3250936666649626,193.37970929505252
0.3260946666649358,193.27694431399712
0.327095666664909,193.17414272886788
0.32809666666488224,193.0713074764847
0.32909766666485546,192.96844143039905
0.3300986666648287,192.86554740221428
0.3310996666648019,192.76262814287438
0.3321006666647751,192.65968634392948
0.33310166666474833,192.55672463877085
0.3341023333313922,192.45389706633355
0.33510333333136544,192.3514027204303
0.33610433333133866,192.24928058628538
0.3371053333313119,192.14752468195496
0.3381063333312851,192.04612914816892
0.3391073333312583,191.94508824578
0.3401083333312315,191.84439635326828
0.34110933333120474,191.7440479642947
0.34211033333117796,191.64403768530792
0.3431113333311512,191.54436023319923
0.3441123333311244,191.445010433007
0.3451133333310976,191.34598321566864
0.34611433333107083,191.2472736158207
0.34711533333104405,191.14887676964165
0.34811633333101727,191.05078791274275
0.3491173333309905,190.95300237810048
0.3501179999976344,190.8555506889038
0.3511189999976076,190.7585965605588
0.3521199999975808,190.66231234623422
0.35312099999755403,190.56668545808338
0.35412199999752725,190.47170356876148
0.35512299999750047,190.3773546060074
0.3561239999974737,190.2836267473408
0.3571249999974469,190.19050841486498
0.3581259999974201,190.0979882701813
0.35912699999739334,190.0060552094103
0.36012799999736655,189.91469835831236
0.3611289999973398,189.82390706751286
0.362129999997313,189.73367090782546
0.3631309999972862,189.64397966567574
0.3641319999972594,189.5548233386127
0.36513299999723264,189.46619213092282
0.36613399999720586,189.37807644932764
0.36713466666384975,189.29053501195898
0.36813566666382297,189.20376543114006
0.3691366666637962,189.1178313986794
0.3701376666637694,189.0327165035541
0.3711386666637426,188.94840467515283
0.37213966666371584,188.8648801761897
0.37314066666368906,188.7821275957764
0.3741416666636623,188.70013184263183
0.3751426666636355,188.6188781384334
0.3761436666636087,188.5383520113091
0.37714466666358193,188.45853928946383
0.37814566666355515,188.37942609493774
0.37914666666352836,188.30099883749563
0.3801476666635016,188.2232442086414
0.3811486666634748,188.1461491757596
0.382149666663448,188.06970097637583
0.38315066666342124,187.9938871125421
0.3841513333300651,187.91882501185162
0.38515233333003834,187.8446528792123
0.38615333333001156,187.77138266750757
0.3871543333299848,187.69899625645945
0.388155333329958,187.62747590208357
0.3891563333299312,187.55680422886041
0.39015733332990443,187.48696422207337
0.39115833332987765,187.41793922030215
0.39215933332985087,187.34971290807636
0.3931603333298241,187.28226930867794
0.3941613333297973,187.2155927770958
0.3951623333297705,187.14966799312643
0.39616333332974374,187.08447995461685
0.39716433332971696,187.02001397085246
0.3981653333296902,186.95625565607477
0.3991663333296634,186.89319092314201
0.4001669999963073,186.83083031907432
0.4011679999962805,186.76928733053427
0.4021689999962537,186.7086569362399
0.40316999999622694,186.64892052036978
0.40417099999620015,186.5900598539788
0.40517199999617337,186.5320570869465
0.4061729999961466,186.47489474010314
0.4071739999961198,186.41855569750805
0.408174999996093,186.36302319889776
0.40917599999606624,186.30828083228684
0.41017699999603946,186.25431252672254
0.4111779999960127,186.2011025451918
0.4121789999959859,186.14863547767555
0.4131799999959591,186.0968962343458
0.41418099999593233,186.0458700389061
0.41518199999590555,185.9955424220698
0.41618299999587877,185.94589921517473
0.41718366666252266,185.89697123756426
0.4181846666624959,185.848870988834
0.4191856666624691,185.80162221089515
0.4201866666624423,185.75520734078543
0.4211876666624155,185.70960918073553
0.42218866666238875,185.66481089057265
0.42318966666236196,185.6207959802796
0.4241906666623352,185.57754830271395
0.4251916666623084,185.53505204647334
0.4261926666622816,185.493291728913
0.42719366666225483,185.4522521893078
0.42819466666222805,185.41191858215444
0.42919566666220127,185.37227637061534
0.4301966666621745,185.33331132009664
0.4311976666621477,185.29500949196316
0.4321986666621209,185.25735723737984
0.43319966666209414,185.22034119128634
0.43420033332873803,185.1840217969294
0.43520133332871125,185.14846111327333
0.43620233332868447,185.11365677080875
0.4372033333286577,185.07959301964348
0.4382043333286309,185.0462544375274
0.4392053333286041,185.01362592303965
0.44020633332857734,184.98169268891175
0.44120733332855055,184.95044025549402
0.4422083333285238,184.91985444435664
0.443209333328497,184.88992137202246
0.4442103333284702,184.86062744383318
0.4452113333284434,184.83195934794054
0.44621233332841664,184.80390404942298
0.44721333332838986,184.77644878452602
0.4482143333283631,184.74958105502066
0.4492153333283363,184.7232886226802
0.4502159999949802,184.6975707509702
0.4512169999949534,184.67247793679925
0.4522179999949266,184.64804184872645
0.45321899999489984,184.62424869084032
0.45421999999487306,184.6010849543437
0.4552209999948463,184.5785374115812
0.4562219999948195,184.55659311019195
0.4572229999947927,184.53523936738253
0.45822399999476593,184.5144637643181
0.45922499999473915,184.494254140632
0.46022599999471236,184.47459858905034
0.4612269999946856,184.4554854501258
0.4622279999946588,184.4369033070821
0.463228999994632,184.41884098076673
0.46422999999460524,184.4012875247074
0.46523099999457845,184.38423222027163
0.46623199999455167,184.3676645719273
0.46723266666119556,184.35159230622753
0.4682336666611688,184.33605340021907
0.469234666661142,184.32104931478716
0.4702356666611152,184.30656871300354
0.47123666666108843,184.29260049398104
0.47223766666106165,184.27913378796293
0.47323866666103487,184.26615795151469
0.4742396666610081,184.25366256281524
0.4752406666609813,184.2416374170468
0.4762416666609545,184.230072521882
0.47724266666092774,184.21895809306267
0.47824366666090096,184.20828455007057
0.4792446666608742,184.19804251189024
0.4802456666608474,184.1882227928579
0.4812466666608206,184.17881639859792
0.48224766666079383,184.1698145220438
0.48324866666076705,184.16120853954095
0.48424933332741094,184.1530121181886
0.48525033332738415,184.1452377669776
0.48625133332735737,184.1378793613241
0.4872523333273306,184.1309279944536
0.4882533333273038,184.1243749451231
0.489254333327277,184.11821167376178
0.49025533332725024,184.1124298186914
0.49125633332722346,184.1070211924248
0.4922573333271967,184.10197777804404
0.4932583333271699,184.09729172564923
0.4942593333271431,184.0929553488869
0.49526033332711633,184.08896112154636
0.49626133332708955,184.08530167422668
0.49726233332706277,184.08196979107888
0.498263333327036,184.07895840660592
0.4992643333270092,184.0762606025394
0.5002649999936678,184.07387105146438
0.5012649999936966,184.07179726847133
0.5022649999937253,184.0700361085198
0.5032649999937541,184.0685808055196
0.5042649999937828,184.06742473425746
0.5052649999938116,184.06656140746827
0.5062649999938403,184.0659844729702
0.5072649999938691,184.0656877108561
0.5082649999938978,184.06566503074347
0.5092649999939266,184.06591046908497
0.5102649999939554,184.06641818652975
0.5112649999939841,184.06718246534416
0.5122649999940129,184.06819770688176
0.5132649999940416,184.0694584291117
0.5142649999940704,184.07095926419285
0.5152649999940991,184.07269495609972
0.5162649999941279,184.07466035830055
0.5172656666608273,184.076851922142
0.518265666660856,184.07926161382522
0.5192656666608848,184.08188597329425
0.5202656666609136,184.08472027487153
0.5212656666609423,184.08775989135012
0.5222656666609711,184.09100029194548
