"Time (min)","Measured temperature"
0.0010000000000000152,20.02082626373161
0.002000999999999941,20.082822843458487
0.003001000000000074,20.18496976988349
0.004001000000000207,20.326431888269
0.005001000000000339,20.506350762487273
0.006001000000000472,20.723885837184266
0.007001000000000605,20.978214066153242
0.008002000000000573,21.26883761071948
0.009002999999999838,21.594728948373398
0.010003999999999102,21.955113111076585
0.011004999999998367,22.349231292886873
0.012005999999997631,22.77634051371599
0.013006999999996896,23.235713290082014
0.01400799999999616,23.726637312710295
0.015008999999995425,24.2484151308412
0.016009999999995358,24.80036384310496
0.01701066666666701,25.381586423425272
0.01801066666666801,25.990827191383005
0.01901066666666901,26.627725432303638
0.02001066666667001,27.29166609116345
0.02101066666667101,27.982046934829995
0.02201066666667201,28.698278285566477
0.02301066666667301,29.439782760075
0.02401066666667401,30.205995013962465
0.02501066666667501,30.996361491516815
0.02601066666667601,31.81034018068368
0.02701066666667701,32.647400373134246
0.02801066666667801,33.507022429320024
0.02901066666667901,34.38869754840975
0.03001066666668001,35.2919275430074
0.03101066666668101,36.21622461855111
0.03201066666668201,37.16111115729835
0.03301066666668301,38.12611950679818
0.03401133333335466,39.110903196183436
0.03501133333335566,40.11199883269342
0.03601133333335666,41.12954334154885
0.03701133333335766,42.1631576603084
0.03801133333335866,43.21247064113824
0.03901133333335966,44.277118886299405
0.04001133333336066,45.35674658705407
0.04101133333336166,46.45100536591948
0.04201133333336266,47.559554122199856
0.04301133333336366,48.682058880729265
0.04401133333336466,49.81819264375597
0.04501133333336566,50.96763524590765
0.04601133333336666,52.13007321216741
0.04701133333336766,53.30519961880451
0.04801133333336866,54.49271395719197
0.04901133333336966,55.69232200045743
0.050012000000041315,56.90454691544608
0.051012000000042315,58.12562518050101
0.052012000000043315,59.35435514819532
0.053012000000044315,60.59054479582782
0.054012000000045315,61.834006124163466
0.055012000000046316,63.08455507378831
0.056012000000047316,64.34201144320113
0.057012000000048316,65.60619880860908
0.058012000000049316,66.87694444538882
0.059012000000050316,68.15407925118102
0.060012000000051316,69.43743767058164
0.061012000000052316,70.7268576213992
0.062012000000053316,72.02218042244431
0.06301200000005432,73.32325072281954
0.06401200000005532,74.62991643268029
0.06501200000005632,75.94202865543176
0.06601200000005732,77.25944162133774
0.06701266666672898,78.58263417837321
0.06801266666672998,79.9065463946348
0.06901266666673098,81.23106998757395
0.07001266666673198,82.55616414213243
0.07101266666673298,83.88178891953558
0.07201266666673398,85.20790523905409
0.07301266666673498,86.53447486014515
0.07401266666673598,87.86146036496388
0.07501266666673698,89.18882514123878
0.07601266666673798,90.51653336550292
0.07701266666673898,91.84454998667312
0.07801266666673998,93.1728407099724
0.07901266666674098,94.50137198118318
0.08001266666674198,95.83011097123158
0.08101266666674298,97.15902556108814
0.08201266666674398,98.48808432698677
0.08301266666674498,99.817256525946
0.08401333333341662,101.14632157234699
0.08501333333341762,102.47017793448383
0.08601333333341862,103.78954227124056
0.08701333333341962,105.10448492465335
0.08801333333342062,106.41507479795946
0.08901333333342162,107.72137938547404
0.09001333333342262,109.02346480184622
0.09101333333342362,110.32139581070807
0.09201333333342462,111.61523585272599
0.09301333333342562,112.90504707307245
0.09401333333342662,114.19089034832386
0.09501333333342762,115.47282531280148
0.09601333333342862,116.75091038436338
0.09701333333342962,118.02520278966232
0.09801333333343062,119.29575858887677
0.09901333333343162,120.56263269992957
0.10001400000010327,121.82671946507101
0.10101400000010427,123.08402103794023
0.10201400000010527,124.33325729592302
0.10301400000010627,125.57457779238939
0.10401400000010727,126.80812899084836
0.10501400000010827,128.03405432914096
0.10601400000010927,129.25249428229878
0.10701400000011027,130.46358642409857
0.10801400000011127,131.66746548733295
0.10901400000011227,132.86426342283525
0.11001400000011327,134.05410945727172
0.11101400000011427,135.23713014973524
0.11201400000011527,136.41344944716323
0.11301400000011627,137.58318873860594
0.11401400000011727,138.74646690836144
0.11501400000011827,139.90340038801
0.11601400000011927,141.05410320736928
0.11701466666679092,142.19918544738402
0.11801466666679192,143.3340979798793
0.11901466666679292,144.4588744475368
0.12001466666679392,145.57371204834567
0.12101466666679492,146.67880389570894
0.12201466666679592,147.7743391033136
0.12301466666679692,148.86050286823655
0.12401466666679792,149.93747655232247
0.12501466666679892,151.00543776187138
0.12601466666679992,152.06456042567066
0.12701466666680092,153.11501487140612
0.12801466666680192,154.15696790048185
0.12901466666680292,155.1905828612874
0.13001466666680392,156.216019720945
0.13101466666680492,157.23343513556046
0.13201466666680592,158.24298251901897
0.13301466666680692,159.2448121103483
0.13401533333347856,160.23882610490614
0.13501533333347956,161.22108776336816
0.13601533333348056,162.1922884313561
0.13701533333348156,163.15264862312569
0.13801533333348256,164.10238427971404
0.13901533333348357,165.0417068639669
0.14001533333348457,165.97082345358976
0.14101533333348557,166.8899368322693
0.14201533333348657,167.7992455788978
0.14301533333348757,168.69894415494758
0.14401533333348857,169.5892229900214
0.14501533333348957,170.4702685656355
0.14601533333349057,171.34226349725415
0.14701533333349157,172.20538661462322
0.14801533333349257,173.05981304043186
0.14901533333349357,173.90571426734
0.1500160000001652,174.74381343851388
0.1510160000001662,175.57142869807873
0.1520160000001672,176.3877049541102
0.1530160000001682,177.192871988339
0.1540160000001692,177.98715481319965
0.1550160000001702,178.77077377093346
0.1560160000001712,179.54394463063653
0.1570160000001722,180.30687868328977
0.1580160000001732,181.05978283481429
0.1590160000001742,181.80285969719193
0.1600160000001752,182.53630767769332
0.1610160000001762,183.26032106624973
0.1620160000001772,183.97509012101307
0.1630160000001782,184.6808011521344
0.1640160000001792,185.3776366038013
0.1650160000001802,186.06577513457415
0.1660160000001812,186.74539169604827
0.16701666666685286,187.41693135007617
0.16801666666685386,188.07764880173323
0.16901666666685486,188.72762246651345
0.17001666666685586,189.36707262849592
0.17101666666685686,189.99621499696357
0.17201666666685786,190.61526080147217
0.17301666666685886,191.22441688493973
0.17401666666685986,191.82388579480548
0.17501666666686086,192.41386587229098
0.17601666666686186,192.99455133980635
0.17701666666686286,193.56613238654555
0.17801666666686386,194.12879525229448
0.17901666666686486,194.68272230950393
0.18001666666686586,195.2280921436526
0.18101666666686686,195.7650796319457
0.18201666666686786,196.29385602037038
0.18301666666686886,196.81458899915657
0.1840173333335405,197.32726248479605
0.1850173333335415,197.82978307139317
0.1860173333335425,198.32258846842066
0.1870173333335435,198.8058798422204
0.1880173333335445,199.27985417937447
0.1890173333335455,199.74470437356274
0.1900173333335465,200.20061931061943
0.1910173333335475,200.64778395181898
0.1920173333335485,201.0863794154334
0.1930173333335495,201.51658305659402
0.1940173333335505,201.93856854549384
0.1950173333335515,202.35250594396288
0.1960173333335525,202.75856178045572
0.1970173333335535,203.1568991234772
0.1980173333335545,203.54767765348493
0.1990173333335555,203.93105373329556
0.20001800000022715,204.30742858327636
0.20101800000022815,204.67557959403032
0.20201800000022915,205.03511869595235
0.20301800000023015,205.38622581607555
0.20401800000023115,205.72907714136187
0.20501800000023215,206.0638451964302
0.20601800000023315,206.39069891966307
0.20701800000023415,206.70980373773386
0.20801800000023515,207.02132163858602
0.20901800000023615,207.32541124289688
0.21001800000023715,207.62222787405182
0.21101800000023815,207.91192362666857
0.21201800000023915,208.19464743369568
0.21301800000024015,208.47054513211694
0.21401800000024115,208.73975952729043
0.21501800000024215,209.00243045595005
0.21601800000024315,209.2586948478995
0.2170186666669148,209.50877672887933
0.2180186666669158,209.7516024773015
0.2190186666669168,209.98723959020947
0.2200186666669178,210.21583959778732
0.2210186666669188,210.43755087909165
0.2220186666669198,210.65251872753979
0.2230186666669208,210.86088541503284
0.2240186666669218,211.06279025475044
0.2250186666669228,211.25836966263844
0.2260186666669238,211.4477572176183
0.2270186666669248,211.63108372054796
0.2280186666669258,211.80847725195366
0.2290186666669268,211.9800632285655
0.2300186666669278,212.145964458675
0.2310186666669288,212.30630119634546
0.2320186666669298,212.4611911944928
0.2330186666669308,212.61074975686645
0.23401933333360245,212.75499925915986
0.23501933333360345,212.89330244577357
0.23601933333360445,213.02584327507842
0.23701933333360545,213.15274438287162
0.23801933333360645,213.27412585353997
0.23901933333360745,213.39010527308392
0.24001933333360845,213.5007977810404
0.24101933333360945,213.6063161213252
0.24201933333361045,213.7067706920215
0.24301933333361145,213.80226959413045
0.24401933333361245,213.89291867931115
0.24501933333361345,213.97882159662785
0.24601933333361445,214.06007983832558
0.24701933333361545,214.13679278465304
0.24801933333361645,214.20905774775702
0.24901933333361745,214.27697001466154
0.25002000000028857,214.34066383988932
0.2510210000002618,214.39997507927995
0.252022000000235,214.45476681198258
0.2530230000002082,214.50513633930566
0.25402400000018144,214.55117893522524
0.25502500000015466,214.5929878885597
0.2560260000001279,214.63065454426894
0.2570270000001011,214.66426834389281
0.2580280000000743,214.69391686514763
0.2590290000000475,214.71968586070312
0.26003000000002074,214.74165929614708
0.26103099999999396,214.75991938716587
0.2620319999999672,214.77454663594636
0.2630329999999404,214.78561986682675
0.2640339999999136,214.79321626119736
0.26503499999988683,214.79741139168306
0.26603599999986005,214.79827925561145
0.26703666666650394,214.79588256848737
0.26803766666647716,214.79017272042967
0.2690386666664504,214.78119039015644
0.2700396666664236,214.7690070441895
0.2710406666663968,214.75369265902106
0.27204166666637003,214.73531575211558
0.27304266666634325,214.7139434122624
0.27404366666631647,214.68964132929685
0.2750446666662897,214.66247382320537
0.2760456666662629,214.6325038726242
0.2770466666662361,214.5997931427455
0.27804766666620934,214.56440201264323
0.27904866666618255,214.5263896020287
0.28004966666615577,214.48581379745187
0.281050666666129,214.44273127795645
0.2820516666661022,214.39719754020228
0.2830526666660754,214.34926692306232
0.2840533333327193,214.29902268170278
0.28505433333269253,214.2465180062641
0.28605533333266575,214.19182117213614
0.28705633333263897,214.1349810661913
0.2880573333326122,214.07604555507754
0.2890583333325854,214.0150615064461
0.2900593333325586,213.95207480973409
0.29106033333253184,213.88713039651788
0.29206133333250506,213.82027226044195
0.2930623333324783,213.75154347672975
0.2940633333324515,213.68098622129543
0.2950643333324247,213.608641789452
0.29606533333239793,213.5345506142349
0.29706633333237115,213.45875228433974
0.29806733333234436,213.38128556169096
0.2990683333323176,213.30218839864324
0.30006899999896147,213.2215255613766
0.3010699999989347,213.1393933646951
0.3020709999989079,213.05593841593893
0.3030719999988811,212.9711912635175
0.30407299999885434,212.88518181734344
0.30507399999882756,212.79793936211746
0.3060749999988008,212.70949257033848
0.307075999998774,212.61986951503903
0.3080769999987472,212.5290976822588
0.30907799999872043,212.43720398325982
0.31007899999869365,212.3442147664845
0.31107999999866687,212.25015582926758
0.3120809999986401,212.15505242930155
0.3130819999986133,212.05892929586528
0.3140829999985865,211.96181064082074
0.31508399999855974,211.86372016937855
0.31608499999853296,211.76468109063958
0.31708566666517685,211.66477604957444
0.31808666666515006,211.5641837125608
0.3190876666651233,211.46300411307283
0.3200886666650965,211.36125214834055
0.3210896666650697,211.258942403021
0.32209066666504294,211.15608915570584
0.32309166666501615,211.05270638528867
0.32409266666498937,210.9488077772017
0.3250936666649626,210.84440672952388
0.3260946666649358,210.73951635896083
0.327095666664909,210.6341495067005
0.32809666666488224,210.5283187441472
0.32909766666485546,210.42203637853572
0.3300986666648287,210.3153144584303
0.3310996666648019,210.20816477910694
0.3321006666647751,210.1005988878249
0.33310166666474833,209.9926280889911
0.3341023333313922,209.88440538892314
0.33510333333136544,209.77610885669165
0.33610433333133866,209.66778713182777
0.3371053333313119,209.55944301747948
0.3381063333312851,209.45107925620317
0.3391073333312583,209.34269853122842
0.3401083333312315,209.23430346769146
0.34110933333120474,209.12589663384938
0.34211033333117796,209.017480542262
0.3431113333311512,208.90905765095556
0.3441123333311244,208.80063036455832
0.3451133333310976,208.69220103541318
0.34611433333107083,208.5837719646676
0.34711533333104405,208.4753454033427
0.34811633333101727,208.36692355337493
0.3491173333309905,208.25850856864218
0.3501179999976344,208.15014129043246
0.3511189999976076,208.04198087495377
0.3521199999975808,207.93420730005087
0.35312099999755403,207.82681438276197
0.35412199999752725,207.71979606687532
0.35512299999750047,207.61314642029728
0.3561239999974737,207.5068596324708
0.3571249999974469,207.40093001185065
0.3581259999974201,207.29535198342745
0.35912699999739334,207.19012008630722
0.36012799999736655,207.085228971338
0.3611289999973398,206.9806733987886
0.362129999997313,206.8764482360737
0.3631309999972862,206.77254845552628
0.3641319999972594,206.6689691322174
0.36513299999723264,206.56570544182185
0.36613399999720586,206.4627526585259
0.36713466666384975,206.36018141901616
0.36813566666382297,206.2581983425599
0.3691366666637962,206.1568790160221
0.3701376666637694,206.0562110906112
0.3711386666637426,205.95618247295297
0.37213966666371584,205.85678131978196
0.37314066666368906,205.7579960327359
0.3741416666636623,205.6598152532657
0.3751426666636355,205.56222785764564
0.3761436666636087,205.4652229520945
0.37714466666358193,205.36878986798942
0.37814566666355515,205.2729181571858
0.37914666666352836,205.17759758743233
0.3801476666635016,205.08281813787985
0.3811486666634748,204.98856999468688
0.382149666663448,204.89484354671538
0.38315066666342124,204.80162938131292
0.3841513333300651,204.7090666149827
0.38515233333003834,204.61730924593894
0.38615333333001156,204.5263777590089
0.3871543333299848,204.43625605772428
0.388155333329958,204.34692837936848
0.3891563333299312,204.25837928803583
0.39015733332990443,204.17059366783317
0.39115833332987765,204.083556716226
0.39215933332985087,203.99725393751783
0.3931603333298241,203.91167113647091
0.3941613333297973,203.8267944120579
0.3951623333297705,203.7426101513409
0.39616333332974374,203.6591050234802
0.39716433332971696,203.57626597386837
0.3981653333296902,203.49408021838443
0.3991663333296634,203.41253523776768
0.4001669999963073,203.33165000679537
0.4011679999962805,203.25155986046047
0.4021689999962537,203.17238434650812
0.40316999999622694,203.0941051906884
0.40417099999620015,203.0167044981364
0.40517199999617337,202.94016474548235
0.4061729999961466,202.86446877312233
0.4071739999961198,202.78959977765535
0.408174999996093,202.71554130447046
0.40917599999606624,202.64227724049496
0.41017699999603946,202.56979180709047
0.4111779999960127,202.49806955309447
0.4121789999959859,202.427095348012
0.4131799999959591,202.35685437534357
0.41418099999593233,202.28733212605613
0.41518199999590555,202.21851439218506
0.41618299999587877,202.1503872605756
0.41718366666252266,202.08299578455333
0.4181846666624959,202.01648402115185
0.4191856666624691,201.95088777460606
0.4201866666624423,201.88618846878686
0.4211876666624155,201.8223679135135
0.42218866666238875,201.75940829652492
0.42318966666236196,201.69729217562045
0.4241906666623352,201.63600247096218
0.4251916666623084,201.57552245753612
0.4261926666622816,201.51583575777434
0.42719366666225483,201.45692633432498
0.42819466666222805,201.39877848297743
0.42919566666220127,201.34137682573234
0.4301966666621745,201.28470630401665
0.4311976666621477,201.22875217203796
0.4321986666621209,201.17349999028173
0.43319966666209414,201.11893561913703
0.43420033332873803,201.06514754146505
0.43520133332871125,201.0122224443323
0.43620233332868447,200.96016230206968
0.4372033333286577,200.90894935814578
0.4382043333286309,200.85856622516286
0.4392053333286041,200.80899587717622
0.44020633332857734,200.76022164217625
0.44120733332855055,200.7122271947258
0.4422083333285238,200.66499654874988
0.443209333328497,200.61851405047926
0.4442103333284702,200.5727643715368
0.4452113333284434,200.52773250216825
0.44621233332841664,200.48340374461526
0.44721333332838986,200.43976370662543
0.4482143333283631,200.39679829509788
0.4492153333283363,200.35449370985953
0.4502159999949802,200.3128543760874
0.4512169999949534,200.27195880472902
0.4522179999949266,200.23185995443413
0.45321899999489984,200.19254130596693
0.45421999999487306,200.15398668366734
0.4552209999948463,200.11618024830443
0.4562219999948195,200.07910649007778
0.4572229999947927,200.0427502217655
0.45822399999476593,200.0070965720137
0.45922499999473915,199.97213097876548
0.46022599999471236,199.93783918282745
0.4612269999946856,199.90420722157057
0.4622279999946588,199.87122142275902
0.463228999994632,199.83886839851183
0.46422999999460524,199.80713503938588
0.46523099999457845,199.77600850858494
0.46623199999455167,199.7454762362884
0.46723266666119556,199.71555749143414
0.4682336666611688,199.68632047677485
0.469234666661142,199.65777348392018
0.4702356666611152,199.62990207728382
0.47123666666108843,199.60269212164977
0.47223766666106165,199.5761297759201
0.47323866666103487,199.55020148699884
0.4742396666610081,199.524893983802
0.4752406666609813,199.50019427138795
0.4762416666609545,199.4760896252164
0.47724266666092774,199.4525675855215
0.47824366666090096,199.42961595180432
0.4792446666608742,199.4072227774399
0.4802456666608474,199.38537636439574
0.4812466666608206,199.3640652580618
0.48224766666079383,199.34327824218352
0.48324866666076705,199.32300433390802
0.48424933332741094,199.30327964289202
0.48525033332738415,199.2841349781408
0.48625133332735737,199.26556497299916
0.4872523333273306,199.24755749700032
0.4882533333273038,199.23010067218988
0.489254333327277,199.2131828678716
0.49025533332725024,199.19679269546756
0.49125633332722346,199.18091900347727
0.4922573333271967,199.16555087254798
0.4932583333271699,199.15067761064466
0.4942593333271431,199.13628874832236
0.49526033332711633,199.12237403409424
0.49626133332708955,199.10892342989825
0.49726233332706277,199.0959271066576
0.498263333327036,199.08337543993235
0.4992643333270092,199.07125900566413
0.5002649999936678,199.0595745985477
0.5012649999936966,199.04835976157437
0.5022649999937253,199.0376135155443
0.5032649999937541,199.02732588713627
0.5042649999937828,199.0174871105227
0.5052649999938116,199.00808762305655
0.5062649999938403,198.9991180610506
0.5072649999938691,198.99056925563997
0.5082649999938978,198.98243222873575
0.5092649999939266,198.9746981890583
0.5102649999939554,198.9673585282559
0.5112649999939841,198.9604048171023
0.5122649999940129,198.9538288017757
0.5132649999940416,198.94762240021208
0.5142649999940704,198.9417776985342
0.5152649999940991,198.9362869475599
0.5162649999941279,198.93114255937596
0.5172656666608273,198.9263402145943
0.518265666660856,198.92190435739374
0.5192656666608848,198.91782661240785
0.5202656666609136,198.91409927181834
0.5212656666609423,198.91071478825242
