"Time (min)","Measured temperature"
0.0010000000000000152,20.165287807393828
0.002000666666666649,20.657106750877364
0.0030006666666667816,21.467691482020115
0.004001333333333622,22.591154838410905
0.005002000000000463,24.020235392287248
0.006002000000000595,25.746999485945505
0.007002666666667436,27.767208122186474
0.008003666666667403,30.074215410489963
0.009004333333333376,32.66020816086071
0.01000499999999935,35.51976309256342
0.011005999999998614,38.64794966032321
0.012006666666664587,42.03679225885198
0.013007666666663852,45.682776579000844
0.014008333333329825,49.57782535807258
0.015008999999995798,53.717580642467524
0.01600999999999573,58.098125972598275
0.017010666666663437,62.71124099984312
0.018010666666664437,67.54985312042545
0.019011333333332145,72.61533402755646
0.020011999999999853,77.89955692226258
0.021012000000000853,83.3939158345228
0.02201266666666856,89.10096803008668
0.02301266666666956,95.00844413743324
0.02401333333333727,101.11964908257784
0.025014000000004977,107.42623323151794
0.026014000000005977,113.91941969062896
0.027014666666673685,120.60357453646836
0.028014666666674685,127.46559317922379
0.029015333333342393,134.51051067844787
0.0300160000000101,141.72978194007482
0.0310160000000111,149.11448132491694
0.0320166666666788,156.67059305867676
0.0330166666666798,164.38427088810386
0.034017333333347506,172.262097210453
0.03501800000001521,180.29535609116374
0.03601800000001621,188.4749930864416
0.037018666666683915,196.8084389725385
0.038018666666684915,205.28119000761606
0.03901933333335262,213.7453576169648
0.040020000000020324,221.72352455753227
0.041020000000021324,229.18883297292967
0.04202066666668903,236.16213756621048
0.04302066666669003,242.64481153597043
0.04402133333335773,248.65595021993383
0.04502200000002544,254.20131096091254
0.04602200000002644,259.28767918834035
0.04702266666669414,263.9316490672149
0.04802266666669514,268.1366324451597
0.04902333333336285,271.9176439148433
0.05002400000003055,275.28095315782576
0.05102400000003155,278.23375108327997
0.052024666666699255,280.7888070369084
0.053024666666700256,282.9513573778679
0.05402533333336796,284.7327537228462
0.055026000000035664,286.1397215839138
0.056026000000036665,287.1798115187909
0.05702666666670437,287.86236027095697
0.05802666666670537,288.1942359803385
0.059027333333373073,288.18350334498854
0.06002800000004078,287.8372928609752
0.06102800000004178,287.1634735003331
0.06202866666670948,286.168302457729
0.06302866666671048,284.86010619498774
0.06402933333337818,283.24400099666815
0.06503000000004588,281.3274765933594
0.06603000000004688,279.1186832756278
0.06703066666671459,276.6211164845036
0.06803066666671559,273.8444048948007
0.0690313333333833,270.79102107527433
0.070032000000051,267.46877283020694
0.071032000000052,263.8860583985634
0.0720326666667197,260.04389752071665
0.0730326666667207,255.9530805951943
0.0740333333333884,251.61371073654266
0.07503400000005611,247.0338767928856
0.07603400000005711,242.22219493546692
0.07703466666672482,237.17746668018623
0.07803466666672582,231.9115177218875
0.07903533333339352,226.4223285815957
0.08003600000006122,220.71823584033345
0.08103600000006222,214.80804660494633
0.08203666666672993,208.68857591603714
0.08303666666673093,202.37257099681145
0.08403733333339863,195.85611196707123
0.08503800000006634,189.1482217207122
0.08603800000006734,182.6125592343434
0.08703866666673504,176.54154078692497
0.08803866666673604,170.93318076261252
0.08903933333340375,165.77012763640408
0.09004000000007145,161.0465984863575
0.09104000000007245,156.7558404882835
0.09204066666674016,152.88286301634759
0.09304066666674116,149.42375789162023
0.09404133333340886,146.3650254043429
0.09504200000007657,143.70040031962998
0.09604200000007757,141.42274844768156
0.09704266666674527,139.52068920439226
0.09804266666674627,137.98859413529613
0.09904333333341397,136.8164206790311
0.10004400000008168,135.99747466491525
0.10104400000008268,135.52428382766888
0.10204466666675038,135.38870709806514
0.10304466666675138,135.5835778099007
0.10404533333341909,136.10195529010073
0.10504600000008679,136.93676446050753
0.10604600000008779,138.08023392759355
0.1070466666667555,139.52712860963584
0.1080466666667565,141.26890748560427
0.1090473333334242,143.30141198766265
0.1100480000000919,145.6172293431618
0.1110480000000929,148.2083240678307
0.11204866666676061,151.07206684992016
0.11304866666676161,154.19868977933945
0.11404933333342931,157.58652854967613
0.11505000000009702,161.22787157171692
0.11605000000009802,165.11445078822106
0.11705066666676572,169.24597242798936
0.11805066666676672,173.61157440119433
0.11905133333343443,178.2118275732002
0.12005200000010213,183.03875651350293
0.12105200000010313,188.08388894102418
0.12205266666677084,193.3490233933053
0.12305266666677184,198.82232302533882
0.12405333333343954,204.33470583998596
0.12505400000010725,209.4189237348916
0.12605400000010825,214.05541790632836
0.12705466666677595,218.2599532599272
0.12805466666677695,222.0363027039411
0.12905533333344466,225.39868933413933
0.13005600000011236,228.35345653351942
0.13105600000011336,230.90784652412248
0.13205666666678106,233.07389089756998
0.13305666666678206,234.85714227649012
0.13405733333344977,236.26824850288475
0.13505800000011747,237.31399704954538
0.13605800000011847,238.0019802963638
0.13705866666678618,238.34087956965467
0.13805866666678718,238.3378389864541
0.13905933333345488,238.00029840127937
0.1400600000001226,237.33543972283232
0.1410600000001236,236.3511652228092
0.1420606666667913,235.05315076169
0.1430606666667923,233.44996255283436
0.14406133333346,231.5461630541711
0.1450620000001277,229.3492839344337
0.1460620000001287,226.86750113286868
0.1470626666667964,224.1037954086179
0.1480626666667974,221.0680026181026
0.1490633333334651,217.7621053954883
0.1500640000001328,214.1939449751534
0.1510640000001338,210.37193837827868
0.15206466666680152,206.29665062612438
0.15306466666680252,201.97905001981158
0.15406533333347022,197.4188072171465
0.15506600000013793,192.62546618732793
0.15606600000013893,187.97886141407028
0.15706666666680663,183.75690168957098
0.15806666666680763,179.9559966158566
0.15906733333347534,176.5620464661877
0.16006800000014304,173.5688748081193
0.16106800000014404,170.96942141440172
0.16206866666681174,168.75174116098205
0.16306866666681274,166.91049360069985
0.16406933333348045,165.43509407086577
0.16507000000014815,164.31892930399516
0.16607000000014915,163.55459457404368
0.16707066666681686,163.13343865566142
0.16807066666681786,163.04855607561063
0.16907133333348556,163.2925162096768
0.17007200000015327,163.85831776655834
0.17107200000015427,164.73825110439225
0.17207266666682197,165.92661995583885
0.17307266666682297,167.41512034276462
0.17407333333349068,169.19915070577176
0.17507400000015838,171.27136564757663
0.17607400000015938,173.62378622038437
0.17707466666682709,176.2533660237519
0.17807466666682809,179.150552439071
0.1790753333334958,182.31328045485927
0.1800760000001635,185.73390008037939
0.1810760000001645,189.40419509500296
0.1820766666668322,193.32349434809692
0.1830766666668332,197.48113144942087
0.1840773333335009,201.87731463860774
0.1850780000001686,206.50212399341908
0.1860780000001696,210.96917199723134
0.1870786666668373,215.00790320354182
0.1880786666668383,218.62223321630572
0.18907933333350602,221.82609243615752
0.19008000000017372,224.62585835751827
0.19108000000017472,227.02879947856573
0.19208066666684243,229.04667347376412
0.19308066666684343,230.68515996708732
0.19408133333351113,231.9546447575786
0.19508200000017883,232.8619452961955
0.19608200000017983,233.41467688992412
0.19708266666684754,233.6212757232741
0.19808266666684854,233.48899879253108
0.19908333333351624,233.0250514976583
0.20008400000018395,232.23664200806152
0.20108400000018495,231.13169251107234
0.20208466666685265,229.71565962410673
0.20308466666685365,227.99720973313458
0.20408533333352136,225.98069567169412
0.20508600000018906,223.67367202607653
0.20608600000019006,221.08433194361072
0.20708666666685777,218.21546024938755
0.20808666666685877,215.07698154006738
0.20908733333352647,211.67069117242426
0.21008800000019417,208.00445029222462
0.21108800000019518,204.08669069476025
0.21208866666686288,199.9178024447898
0.21308866666686388,195.50883229847645
0.21408933333353158,191.04849589148628
0.2150900000001993,186.99222187705564
0.2160900000002003,183.35322080021228
0.217090666666868,180.11768541414474
0.218090666666869,177.28116574988434
0.2190913333335367,174.83129364460547
0.2200920000002044,172.76167936224843
0.2210920000002054,171.06509498009441
0.2220926666668731,169.7312176876211
0.2230926666668741,168.75393885117435
0.2240933333335418,168.1242270344826
0.22509400000020952,167.83527976881683
0.22609400000021052,167.87954417592013
0.22709466666687822,168.24982391731209
0.22809466666687922,168.9385275771159
0.22909533333354692,169.93961723115902
0.23009600000021463,171.24592407177508
0.23109600000021563,172.84960788532698
0.23209666666688333,174.74627658774685
0.23309666666688433,176.9270142730676
0.23409733333355204,179.38846759050472
0.23509800000021974,182.12314313493613
0.23609800000022074,185.12294720020023
0.23709866666688845,188.386001920924
0.23809866666688945,191.90220935711383
0.23909933333355715,195.67062265037
0.24010000000022486,199.6834613513689
0.24110000000022586,203.93240870376187
0.24210066666689356,208.35539732757397
0.24310066666689456,212.45076876555854
0.24410133333356226,216.12564054472023
0.24510200000022997,219.3862816035523
0.24610200000023097,222.23987441733792
0.24710266666689867,224.698984172829
0.24810266666689967,226.76890474343722
0.24910333333356738,228.46079531418115
0.2501040000002322,229.78137669733553
0.2511050000002054,230.73896573125057
0.25210566666684536,231.34081639372414
0.2531066666668186,231.59506050104403
0.25410733333345853,231.50909493768555
0.2551080000000985,231.0904684106657
0.2561090000000717,230.34613186099725
0.25710966666671164,229.28368392507656
0.25811066666668486,227.90937484960352
0.2591113333333248,226.23092978625348
0.26011199999996476,224.25460870877808
0.261112999999938,221.98613558879256
0.2621136666665779,219.43341400866098
0.26311466666655114,216.60100567892832
0.2641153333331911,213.4969259515774
0.26511599999983104,210.12627729505544
0.26611699999980426,206.4936817678055
0.2671176666664442,202.60731217356263
0.2681186666664174,198.47021543799073
0.2691193333330574,194.2951552602986
0.2701199999996973,190.52239283568278
0.27112099999967054,187.1573134070622
0.2721216666663105,184.19332579191303
0.2731226666662837,181.61980299885067
0.27412333333292366,179.42999089755443
0.2751239999995636,177.61467834151796
0.2761249999995368,176.16532607150776
0.2771256666661768,175.07494965434583
0.27812666666615,174.3350350088164
0.27912733333278994,173.93845310944727
0.2801279999994299,173.87743858691277
0.2811289999994031,174.14482883656837
0.28212966666604306,174.73329064690614
0.2831306666660163,175.63620682438233
0.2841313333326562,176.84611607920905
0.28513199999929617,178.3565519696855
0.2861329999992694,180.16158860180926
0.28713366666590934,182.25358399567767
0.28813466666588256,184.62762339785104
0.2891353333325225,187.27595160642045
0.29013599999916245,190.19326891943325
0.29113699999913567,193.37476018236057
0.2921376666657756,196.8125106397199
0.29313866666574884,200.5031329532586
0.2941393333323888,204.22360564066793
0.29513999999902873,207.54154021345363
0.29614099999900195,210.45409790912268
0.2971416666656419,212.96812720048015
0.2981426666656151,215.0939121067902
0.29914333333225507,216.83846266365973
0.300143999998895,218.21079912332365
0.30114499999886823,219.21927375094313
0.3021456666655082,219.8711248794933
0.3031466666654814,220.174535510754
0.30414733333212135,220.13688727861222
0.3051479999987613,219.76576252938193
0.3061489999987345,219.06814440036914
0.30714966666537447,218.0516168394182
0.3081506666653477,216.72247677840784
0.30915133333198763,215.088435036579
0.3101519999986276,213.15578217446378
0.3111529999986008,210.93027145019022
0.31215366666524075,208.41979262146705
0.31315466666521397,205.62895002959797
0.3141553333318539,202.56574552370708
0.31515599999849386,199.24336031438534
0.3161569999984671,196.08436770873567
0.31715766666510703,193.3217259405736
0.31815866666508025,190.94503976348312
0.3191593333317202,188.94751948282448
0.32015999999836015,187.32011377250933
0.32116099999833336,186.054435403879
0.3221616666649733,185.14346730755372
0.32316266666494653,184.57890279396813
0.3241633333315865,184.35358205227385
0.3251639999982264,184.4598829723902
0.32616499999819965,184.89077919859548
0.3271656666648396,185.63890936634374
0.3281666666648128,186.69784175588973
0.32916733333145276,188.06008858815582
0.3301679999980927,189.71931177461337
0.3311689999980659,191.66970746586034
0.3321696666647059,193.90360955878816
0.3331706666646791,196.41626904839532
0.33417133333131904,199.19990810490702
0.335171999997959,202.23955017491912
0.3361729999979322,205.10552378685202
0.33717366666457216,207.5741099343456
0.3381746666645454,209.65553878802805
0.3391753333311853,211.35682685245314
0.3401759999978253,212.68695684079947
0.3411769999977985,213.65424535658954
0.34217766666443844,214.26593650080804
0.34317866666441166,214.53016529860446
0.3441793333310516,214.4543187090328
0.34517999999769156,214.04594553444446
0.3461809999976648,213.31199705732666
0.3471816666643047,212.26006192116608
0.34818266666427794,210.89639436497492
0.3491833333309179,209.22870950596158
0.35018399999755784,207.2632679560224
0.35118499999753106,205.00579454430064
0.352185666664171,202.46418276123413
0.3531866666641442,199.64299900947
0.35418733333078417,196.7915588056926
0.3551879999974241,194.32159386431087
0.35618899999739734,192.23128519138552
0.3571896666640373,190.5137856627109
0.3581906666640105,189.15987971603593
0.35919133333065045,188.16256959651997
0.3601919999972904,187.51361146829754
0.3611929999972636,187.20538695328827
0.36219366666390357,187.23068551784496
0.3631946666638768,187.582259397721
0.36419533333051674,188.25276454685502
0.3651959999971567,189.23530425357598
0.3661969999971299,190.52354278146336
0.36719766666376985,192.10994766151185
0.36819866666374307,193.98903740178488
0.369199333330383,196.15316142105985
0.37019999999702297,198.59663313393773
0.3712009999969962,201.31426889044474
0.37220166666363613,204.20339277988123
0.37320266666360935,206.76753486060238
0.3742033333302493,208.94092649064854
0.37520399999688925,210.7329305533445
0.37620499999686247,212.15222566071674
0.3772056666635024,213.2059636335936
0.37820666666347563,213.90277850810747
0.3792073333301156,214.24996930312108
0.38020799999675553,214.25542640821968
0.38120899999672875,213.92642634577197
0.3822096666633687,213.27047599401416
0.3832106666633419,212.2942775131536
0.38421133332998186,211.00546815957196
0.3852119999966218,209.4106154015064
0.38621299999659503,207.51573621039128
0.387213666663235,205.32865177089468
0.3882146666632082,202.85433041993855
0.38921533332984815,200.10070858893198
0.3902159999964881,197.0886211974988
0.3912169999964613,194.26551014916126
0.39221766666310126,191.83136355646573
0.3932186666630745,189.7761566740029
0.3942193333297144,188.0930341284075
0.3952199999963544,186.77319812549513
0.3962209999963276,185.8085028455584
0.39722166666296754,185.19187012078407
0.39822266666294076,184.91532587577282
0.3992233333295807,184.97165209741527
0.40022399999622066,185.35345445243982
0.4012249999961939,186.05392345012342
0.4022256666628338,187.065643644288
0.40322666666280704,188.3824818264372
0.404227333329447,189.99689874129112
0.40522799999608694,191.90276089347785
0.40622899999606016,194.09445920526278
0.4072296666627001,196.56427980416228
0.4082306666626733,199.30774149995594
0.4092313333293133,202.31702103719425
0.4102319999959532,205.56928346978964
0.41123299999592644,208.6116890840814
0.4122336666625664,211.2527345031429
0.4132346666625396,213.50284647661627
0.41423533332917956,215.36900911244032
0.4152359999958195,216.8603401920038
0.4162369999957927,217.98528486291212
0.41723766666243267,218.75105728779766
0.4182386666624059,219.16596867778907
0.41923933332904584,219.23737760768662
0.4202399999956858,218.9729540823929
0.421240999995659,218.379764715175
0.42224166666229895,217.46537197597368
0.42324266666227217,216.23618793490476
0.4242433333289121,214.69990293314638
0.42524399999555207,212.86288630457156
0.4262449999955253,210.7309663158095
0.42724566666216524,208.31201366912163
0.42824666666213845,205.61073607821626
0.4292473333287784,202.6351172363144
0.43024799999541835,199.39035822423008
0.43124899999539157,195.88117515227722
0.4322496666620315,192.22833248126673
0.43325066666200474,188.92335161896798
0.4342513333286447,186.01809743394503
0.43525199999528463,183.50278404299846
0.43625299999525785,181.3683248636003
0.4372536666618978,179.6078766868495
0.438254666661871,178.2121703669662
0.43925533332851097,177.17421154898955
0.4402559999951509,176.48571836098054
0.44125699999512413,176.1390363709417
0.4422576666617641,176.12695771283276
0.4432586666617373,176.44218724280694
0.44425933332837725,177.07738312011395
0.4452599999950172,178.02561482104298
0.4462609999949904,179.28051457985288
0.44726166666163036,180.83455147618935
0.4482626666616036,182.68220221929818
0.44926333332824353,184.8158173621342
0.4502639999948835,187.2296803077904
0.4512649999948567,189.91857899796656
0.45226566666149665,192.8746968847559
0.45326666666146986,196.0941005725772
0.4542673333281098,199.56886888347518
0.45526799999474976,203.27056990958445
0.456268999994723,206.7350325477255
0.45726966666136293,209.7888450164315
0.45827066666133615,212.44289980376618
0.4592713333279761,214.70409868080574
0.46027199999461604,216.58187818172914
0.46127299999458926,218.08498695934028
0.4622736666612292,219.2205625996417
0.46327466666120243,219.99733439983024
0.4642753333278424,220.42258800031095
0.4652759999944823,220.50427976493933
0.46627699999445554,220.24974894170643
0.4672776666610955,219.6664902482301
0.4682786666610687,218.76129094772384
0.46927933332770866,217.5417769055861
0.4702799999943486,216.0145746551442
0.4712809999943218,214.18575730963815
0.4722816666609618,212.063135757155
0.473282666660935,209.6517542961217
0.47428333332757494,206.9595397529271
0.4752839999942149,203.99192416002538
0.4762849999941881,200.7538434611117
0.47728566666082806,197.38032677294802
0.4782866666608013,194.35801216472154
0.4792873333274412,191.72906321908292
0.48028799999408117,189.48391992732817
0.4812889999940544,187.6137106858081
0.48228966666069434,186.11154163595336
0.48329066666066756,184.96843849414435
0.4842913333273075,184.1773588521722
0.48529199999394745,183.73022355740957
0.48629299999392067,183.61957109089525
0.4872936666605606,183.83814922685326
0.48829466666053384,184.37892703047237
0.4892953333271738,185.2345206362112
0.49029599999381374,186.3981813973768
0.49129699999378695,187.86371459964087
0.4922976666604269,189.62355061922773
0.4932986666604001,191.672402785204
0.49429933332704007,194.00258504666982
0.49529999999368,196.60854392360224
0.49630099999365324,199.48522253181667
0.4973016666602932,202.49119491427138
0.4983026666602664,205.1424396553927
0.49930333332690635,207.40104246177603
0.5003039999935631,209.27643431181465
0.5013039999935919,210.77604373322313
0.5023046666602874,211.90999777984987
0.5033046666603161,212.68473689461308
0.5043053333270117,213.10908657216604
0.5053059999937072,213.19004620550191
0.5063059999937359,212.93537128165883
0.5073066666604314,212.35203776670085
0.5083066666604602,211.44797982484323
0.5093073333271557,210.22900592669433
0.5103079999938512,208.7024841530955
0.51130799999388,206.87645902064435
0.5123086666605755,204.75508030000088
0.5133086666606043,202.34761627410242
0.5143093333272998,199.6571698924732
0.5153099999939953,196.7232938355196
0.516309999994024,194.02486494529123
0.5173106666607196,191.7098197025888
0.5183106666607483,189.77291295139304
0.5193113333274438,188.2033987274179
0.5203119999941394,186.9946950057824
0.5213119999941681,186.13942479089843
